Frequency,DB(MAG(V(Output))),PHDEG(V(Output)),PHDEG_corrected(V(Output))
40,1.636131307,-171.5503992,8.449600823
40.09220952,1.644272556,-171.5338597,8.466140324
40.18463161,1.652457506,-171.5173062,8.482693774
40.27726675,1.660686428,-171.500739,8.499260983
40.37011544,1.668959592,-171.4841582,8.515841759
40.46317817,1.677277272,-171.4675641,8.532435905
40.55645543,1.685639741,-171.4509568,8.549043225
40.64994771,1.694047279,-171.4343365,8.565663515
40.74365552,1.702500163,-171.4177034,8.582296574
40.83757935,1.710998675,-171.4010578,8.598942192
40.93171969,1.7195431,-171.3843998,8.615600161
41.02607705,1.728133722,-171.3677297,8.632270266
41.12065193,1.73677083,-171.3510477,8.648952291
41.21544482,1.745454714,-171.334354,8.665646018
41.31045623,1.754185667,-171.3176488,8.682351222
41.40568667,1.762963982,-171.3009323,8.699067679
41.50113663,1.771789958,-171.2842048,8.715795158
41.59680663,1.780663893,-171.2674666,8.732533428
41.69269718,1.789586089,-171.2507177,8.749282252
41.78880877,1.798556851,-171.2339586,8.766041391
41.88514192,1.807576484,-171.2171894,8.782810601
41.98169715,1.816645297,-171.2004104,8.799589638
42.07847495,1.825763602,-171.1836218,8.81637825
42.17547586,1.834931713,-171.1668238,8.833176184
42.27270037,1.844149945,-171.1500168,8.849983184
42.37014901,1.853418617,-171.133201,8.866798987
42.46782229,1.86273805,-171.1163767,8.88362333
42.56572073,1.872108569,-171.0995441,8.900455944
42.66384485,1.881530499,-171.0827034,8.917296557
42.76219517,1.89100417,-171.0658551,8.934144892
42.86077221,1.900529913,-171.0489993,8.95100067
42.95957649,1.910108062,-171.0321364,8.967863606
43.05860855,1.919738955,-171.0152666,8.984733411
43.15786889,1.92942293,-170.9983902,9.001609794
43.25735805,1.939160332,-170.9815075,9.018492458
43.35707656,1.948951504,-170.9646189,9.035381102
43.45702494,1.958796794,-170.9477246,9.052275421
43.55720373,1.968696555,-170.9308249,9.069175106
43.65761346,1.978651138,-170.9139202,9.086079842
43.75825465,1.988660902,-170.8970107,9.102989311
43.85912785,1.998726205,-170.8800968,9.11990319
43.96023358,2.00884741,-170.8631788,9.136821151
44.06157238,2.019024883,-170.8462571,9.153742863
44.1631448,2.029258992,-170.829332,9.170667988
44.26495136,2.039550108,-170.8124038,9.187596185
44.36699261,2.049898607,-170.7954729,9.204527106
44.46926909,2.060304866,-170.7785396,9.221460401
44.57178134,2.070769266,-170.7616043,9.238395712
44.67452991,2.081292191,-170.7446673,9.255332678
44.77751534,2.091874029,-170.7277291,9.272270931
44.88073817,2.10251517,-170.7107899,9.2892101
44.98419896,2.113216008,-170.6938502,9.306149808
45.08789825,2.123976941,-170.6769103,9.32308967
45.19183659,2.134798368,-170.6599707,9.3400293
45.29601453,2.145680694,-170.6430317,9.356968303
45.40043263,2.156624327,-170.6260937,9.37390628
45.50509143,2.167629678,-170.6091572,9.390842825
45.6099915,2.17869716,-170.5922225,9.407777527
45.71513339,2.189827192,-170.57529,9.42470997
45.82051766,2.201020196,-170.5583603,9.441639731
45.92614486,2.212276596,-170.5414336,9.458566381
46.03201556,2.223596823,-170.5245105,9.475489484
46.13813031,2.234981308,-170.5075914,9.4924086
46.24448969,2.246430487,-170.4906767,9.509323282
46.35109425,2.257944802,-170.4737669,9.526233074
46.45794455,2.269524696,-170.4568625,9.543137516
46.56504118,2.281170617,-170.4399639,9.560036142
46.67238468,2.292883018,-170.4230715,9.576928478
46.77997564,2.304662353,-170.406186,9.593814043
46.88781462,2.316509083,-170.3893077,9.610692349
46.9959022,2.328423673,-170.3724371,9.627562902
47.10423894,2.34040659,-170.3555748,9.6444252
47.21282543,2.352458306,-170.3387213,9.661278735
47.32166223,2.364579298,-170.321877,9.678122989
47.43074993,2.376770047,-170.3050426,9.69495744
47.5400891,2.389031038,-170.2882184,9.711781556
47.64968032,2.401362761,-170.2714052,9.728594799
47.75952418,2.413765709,-170.2546034,9.74539662
47.86962125,2.426240381,-170.2378135,9.762186467
47.97997213,2.438787279,-170.2210362,9.778963776
48.09057738,2.451406913,-170.204272,9.795727976
48.20143761,2.464099792,-170.1875215,9.812478489
48.3125534,2.476866435,-170.1707853,9.829214726
48.42392534,2.489707363,-170.1540639,9.845936091
48.53555402,2.502623102,-170.137358,9.862641981
48.64744003,2.515614184,-170.1206682,9.87933178
48.75958396,2.528681145,-170.1039951,9.896004868
48.87198641,2.541824526,-170.0873394,9.912660611
48.98464797,2.555044873,-170.0707016,9.929298369
49.09756925,2.568342737,-170.0540825,9.945917491
49.21075083,2.581718676,-170.0374827,9.962517319
49.32419333,2.595173251,-170.0209028,9.979097182
49.43789734,2.608707029,-170.0043436,9.995656401
49.55186346,2.622320582,-169.9878057,10.01219429
49.6660923,2.636014489,-169.9712899,10.02871014
49.78058447,2.649789332,-169.9547968,10.04520325
49.89534057,2.6636457,-169.9383271,10.06167289
50.01036121,2.677584189,-169.9218817,10.07811835
50.125647,2.691605398,-169.9054611,10.09453886
50.24119855,2.705709933,-169.8890663,10.11093369
50.35701647,2.719898407,-169.8726979,10.12730206
50.47310138,2.734171437,-169.8563568,10.1436432
50.5894539,2.748529647,-169.8400437,10.15995633
50.70607463,2.762973666,-169.8237594,10.17624064
50.82296421,2.777504132,-169.8075047,10.19249533
50.94012324,2.792121686,-169.7912804,10.20871957
51.05755235,2.806826978,-169.7750875,10.22491252
51.17525217,2.821620661,-169.7589267,10.24107334
51.29322331,2.836503398,-169.7427988,10.25720117
51.4114664,2.851475857,-169.7267049,10.27329513
51.52998207,2.866538712,-169.7106457,10.28935434
51.64877094,2.881692645,-169.6946221,10.3053779
51.76783366,2.896938345,-169.6786351,10.32136488
51.88717084,2.912276506,-169.6626856,10.33731438
52.00678312,2.927707832,-169.6467746,10.35322543
52.12667114,2.943233031,-169.6309029,10.36909709
52.24683553,2.95885282,-169.6150716,10.38492838
52.36727692,2.974567923,-169.5992817,10.40071832
52.48799596,2.990379071,-169.5835341,10.41646591
52.60899329,3.006287004,-169.5678299,10.43217012
52.73026954,3.022292467,-169.5521701,10.44782994
52.85182537,3.038396215,-169.5365557,10.46344431
52.97366141,3.05459901,-169.5209878,10.47901216
53.09577831,3.070901622,-169.5054676,10.49453241
53.21817672,3.087304828,-169.489996,10.51000397
53.34085729,3.103809414,-169.4745743,10.52542573
53.46382066,3.120416176,-169.4592035,10.54079654
53.5870675,3.137125915,-169.4438847,10.55611526
53.71059845,3.153939443,-169.4286193,10.57138072
53.83441416,3.17085758,-169.4134083,10.58659174
53.9585153,3.187881153,-169.3982529,10.60174711
54.08290253,3.205011001,-169.3831544,10.6168456
54.20757649,3.22224797,-169.368114,10.63188597
54.33253786,3.239592915,-169.353133,10.64686696
54.4577873,3.2570467,-169.3382127,10.66178728
54.58332546,3.274610201,-169.3233544,10.67664563
54.70915302,3.292284299,-169.3085593,10.69144069
54.83527065,3.310069889,-169.2938289,10.7061711
54.961679,3.327967873,-169.2791645,10.72083551
55.08837876,3.345979165,-169.2645675,10.73543251
55.21537058,3.364104686,-169.2500393,10.7499607
55.34265516,3.38234537,-169.2355813,10.76441865
55.47023315,3.400702161,-169.2211951,10.77880489
55.59810525,3.419176013,-169.2068821,10.79311795
55.72627212,3.437767889,-169.1926437,10.8073563
55.85473444,3.456478766,-169.1784816,10.82151844
55.9834929,3.47530963,-169.1643972,10.83560279
56.11254818,3.494261478,-169.1503922,10.84960777
56.24190097,3.51333532,-169.1364682,10.86353178
56.37155194,3.532532176,-169.1226268,10.87737319
56.50150178,3.551853077,-169.1088697,10.89113032
56.6317512,3.571299068,-169.0951985,10.9048015
56.76230087,3.590871204,-169.081615,10.91838499
56.89315148,3.610570554,-169.0681209,10.93187907
57.02430374,3.630398197,-169.0547181,10.94528194
57.15575834,3.650355228,-169.0414082,10.95859181
57.28751597,3.670442751,-169.0281932,10.97180683
57.41957733,3.690661886,-169.0150749,10.98492514
57.55194313,3.711013764,-169.0020552,10.99794484
57.68461406,3.731499531,-168.989136,11.010864
57.81759083,3.752120346,-168.9763193,11.02368065
57.95087414,3.772877381,-168.9636072,11.0363928
58.0844647,3.793771823,-168.9510016,11.0489984
58.21836322,3.814804873,-168.9385046,11.0614954
58.35257041,3.835977746,-168.9261183,11.07388169
58.48708698,3.857291673,-168.9138449,11.08615512
58.62191364,3.878747898,-168.9016865,11.09831352
58.75705111,3.900347682,-168.8896453,11.11035467
58.8925001,3.9220923,-168.8777237,11.12227633
59.02826133,3.943983044,-168.8659238,11.13407618
59.16433553,3.966021221,-168.8542481,11.1457519
59.30072341,3.988208154,-168.8426989,11.15730111
59.43742569,4.010545184,-168.8312786,11.16872139
59.57444311,4.033033666,-168.8199897,11.18001027
59.71177638,4.055674974,-168.8088347,11.19116526
59.84942624,4.0784705,-168.7978162,11.2021838
59.98739342,4.101421652,-168.7869367,11.21306328
60.12567864,4.124529855,-168.7761989,11.22380108
60.26428265,4.147796555,-168.7656055,11.23439448
60.40320617,4.171223215,-168.7551592,11.24484076
60.54244994,4.194811316,-168.7448629,11.25513711
60.6820147,4.21856236,-168.7347193,11.26528069
60.82190119,4.242477866,-168.7247314,11.27526861
60.96211015,4.266559374,-168.7149021,11.28509792
61.10264233,4.290808446,-168.7052344,11.29476561
61.24349847,4.315226661,-168.6957314,11.30426862
61.38467931,4.339815621,-168.6863962,11.31360383
61.52618561,4.364576949,-168.6772319,11.32276806
61.66801812,4.389512289,-168.6682419,11.33175808
61.81017758,4.414623307,-168.6594294,11.34057059
61.95266476,4.439911691,-168.6507978,11.34920223
62.0954804,4.465379154,-168.6423504,11.35764957
62.23862526,4.491027429,-168.6340909,11.36590911
62.38210011,4.516858274,-168.6260227,11.37397731
62.52590571,4.542873472,-168.6181495,11.38185053
62.6700428,4.569074827,-168.6104749,11.38952508
62.81451217,4.595464172,-168.6030028,11.39699718
62.95931458,4.622043363,-168.595737,11.404263
63.10445079,4.648814282,-168.5886814,11.4113186
63.24992157,4.675778838,-168.58184,11.41816
63.3957277,4.702938965,-168.5752169,11.42478312
63.54186994,4.730296626,-168.5688162,11.4311838
63.68834908,4.75785381,-168.5626422,11.4373578
63.83516589,4.785612538,-168.5566992,11.4433008
63.98232114,4.813574854,-168.5509916,11.44900837
64.12981563,4.841742837,-168.545524,11.45447603
64.27765012,4.870118591,-168.5403008,11.45969916
64.42582541,4.898704254,-168.5353269,11.4646731
64.57434227,4.927501994,-168.530607,11.46939304
64.72320151,4.95651401,-168.5261459,11.47385412
64.87240389,4.985742533,-168.5219487,11.47805134
65.02195023,5.015189828,-168.5180204,11.48197961
65.17184131,5.044858194,-168.5143663,11.48563375
65.32207792,5.074749961,-168.5109916,11.48900844
65.47266086,5.104867497,-168.5079017,11.49209827
65.62359093,5.135213205,-168.5051023,11.49489771
65.77486893,5.165789523,-168.5025989,11.49740112
65.92649566,5.196598927,-168.5003973,11.49960272
66.07847193,5.22764393,-168.4985034,11.50149661
66.23079854,5.258927084,-168.4969232,11.50307679
66.3834763,5.29045098,-168.4956629,11.50433709
66.53650601,5.322218249,-168.4947288,11.50527122
66.6898885,5.354231562,-168.4941272,11.50587278
66.84362457,5.386493634,-168.4938648,11.50613518
66.99771504,5.419007221,-168.4939483,11.50605172
67.15216072,5.451775121,-168.4943845,11.50561554
67.30696244,5.484800179,-168.4951804,11.50481961
67.46212102,5.518085283,-168.4963432,11.50365678
67.61763727,5.551633369,-168.4978803,11.50211971
67.77351202,5.585447419,-168.4997991,11.50020089
67.9297461,5.619530464,-168.5021074,11.49789265
68.08634034,5.653885583,-168.5048129,11.49518714
68.24329556,5.688515907,-168.5079237,11.49207634
68.4006126,5.723424617,-168.511448,11.48855203
68.5582923,5.758614945,-168.5153942,11.48460579
68.71633549,5.794090181,-168.519771,11.48022903
68.874743,5.829853665,-168.5245871,11.47541293
69.03351568,5.865908796,-168.5298515,11.47014848
69.19265437,5.902259029,-168.5355736,11.46442645
69.35215991,5.938907877,-168.5417626,11.45823737
69.51203315,5.975858913,-168.5484284,11.45157158
69.67227494,6.013115773,-168.5555808,11.44441915
69.83288612,6.050682153,-168.5632301,11.43676993
69.99386754,6.088561813,-168.5713865,11.4286135
70.15522007,6.126758579,-168.5800608,11.41993921
70.31694456,6.165276345,-168.5892639,11.41073613
70.47904186,6.204119071,-168.599007,11.40099305
70.64151283,6.243290788,-168.6093015,11.39069849
70.80435833,6.282795599,-168.6201593,11.37984068
70.96757924,6.322637679,-168.6315924,11.36840756
71.1311764,6.362821279,-168.6436133,11.35638673
71.2951507,6.403350726,-168.6562345,11.34376551
71.45950299,6.444230425,-168.6694691,11.33053087
71.62423416,6.485464862,-168.6833306,11.31666945
71.78934507,6.527058606,-168.6978325,11.30216752
71.95483661,6.569016308,-168.712989,11.28701103
72.12070963,6.611342708,-168.7288145,11.27118551
72.28696504,6.654042631,-168.7453239,11.25467615
72.4536037,6.697120995,-168.7625323,11.2374677
72.62062651,6.74058281,-168.7804555,11.21954453
72.78803434,6.78443318,-168.7991094,11.20089058
72.95582809,6.828677308,-168.8185107,11.18148933
73.12400865,6.873320494,-168.8386762,11.16132384
73.29257689,6.918368144,-168.8596233,11.14037666
73.46153373,6.963825765,-168.8813701,11.1186299
73.63088006,7.009698973,-168.9039349,11.09606514
73.80061677,7.055993494,-168.9273366,11.07266343
73.97074476,7.102715166,-168.9515947,11.04840531
74.14126494,7.149869945,-168.9767293,11.02327075
74.3121782,7.197463903,-169.0027609,10.99723913
74.48348547,7.245503236,-169.0297107,10.97028926
74.65518763,7.293994262,-169.0576007,10.94239931
74.82728561,7.34294343,-169.0864532,10.91354682
74.99978032,7.392357319,-169.1162913,10.88370865
75.17267267,7.442242644,-169.147139,10.85286099
75.34596358,7.492606257,-169.1790207,10.82097931
75.51965396,7.543455154,-169.2119617,10.78803832
75.69374475,7.594796475,-169.245988,10.75401198
75.86823685,7.646637512,-169.2811265,10.71887345
76.0431312,7.698985709,-169.3174049,10.68259506
76.21842872,7.751848669,-169.3548517,10.64514828
76.39413034,7.805234158,-169.3934963,10.60650367
76.570237,7.859150107,-169.4333691,10.5666309
76.74674963,7.913604619,-169.4745014,10.52549862
76.92366916,7.968605974,-169.5169255,10.48307453
77.10099653,8.024162633,-169.5606747,10.43932526
77.27873268,8.08028324,-169.6057836,10.39421635
77.45687856,8.136976634,-169.6522878,10.34771223
77.6354351,8.194251848,-169.7002239,10.29977615
77.81440326,8.252118118,-169.7496299,10.25037012
77.99378399,8.310584886,-169.8005451,10.1994549
78.17357823,8.369661809,-169.8530101,10.14698992
78.35378694,8.429358763,-169.9070668,10.09293322
78.53441107,8.489685849,-169.9627586,10.0372414
78.71545159,8.550653402,-170.0201304,9.979869561
78.89690944,8.612271995,-170.0792288,9.920771245
79.0787856,8.674552445,-170.1401016,9.859898355
79.26108103,8.737505824,-170.2027989,9.797201089
79.44379669,8.801143462,-170.2673721,9.732627866
79.62693356,8.865476958,-170.3338748,9.666125247
79.8104926,8.930518186,-170.4023621,9.597637854
79.99447479,8.996279304,-170.4728917,9.527108277
80.17888109,9.062772758,-170.545523,9.454476988
80.3637125,9.130011299,-170.6203178,9.379682241
80.54896999,9.198007982,-170.69734,9.302659969
80.73465455,9.266776182,-170.7766563,9.223343678
80.92076715,9.336329602,-170.8583357,9.141664334
81.10730878,9.406682279,-170.9424498,9.057550239
81.29428044,9.477848597,-171.0290731,8.970926909
81.48168311,9.549843296,-171.1182831,8.881716937
81.66951779,9.622681484,-171.2101602,8.78983985
81.85778547,9.696378644,-171.304788,8.695211964
82.04648715,9.770950649,-171.4022538,8.59774622
82.23562384,9.846413769,-171.502648,8.497352023
82.42519653,9.922784686,-171.6060649,8.393935056
82.61520623,10.0000805,-171.7126029,8.287397101
82.80565395,10.07831876,-171.8223642,8.177635831
82.9965407,10.15751744,-171.9354554,8.064544606
83.18786748,10.23769499,-172.0519878,7.948012247
83.37963532,10.31887031,-172.1720772,7.827922794
83.57184523,10.40106281,-172.2958447,7.70415526
83.76449823,10.48429238,-172.4234166,7.57658336
83.95759534,10.56857942,-172.5549248,7.445075223
84.15113759,10.65394486,-172.6905069,7.309493098
84.345126,10.74041016,-172.830307,7.169693022
84.53956159,10.82799733,-172.9744755,7.025524486
84.73444541,10.91672895,-173.1231699,6.876830063
84.92977848,11.00662816,-173.276555,6.723445025
85.12556184,11.09771869,-173.4348031,6.56519693
85.32179653,11.19002488,-173.5980948,6.401905175
85.51848358,11.28357167,-173.7666195,6.23338053
85.71562404,11.37838463,-173.9405754,6.059424638
85.91321897,11.47448995,-174.1201705,5.879829476
86.11126939,11.57191447,-174.3056232,5.694376783
86.30977637,11.67068569,-174.4971625,5.502837453
86.50874095,11.77083174,-174.6950291,5.304970878
86.70816419,11.87238144,-174.8994757,5.100524253
86.90804715,11.97536425,-175.1107682,4.88923183
87.10839089,12.07981031,-175.3291859,4.670814117
87.30919647,12.18575041,-175.555023,4.444977023
87.51046496,12.29321601,-175.7885891,4.211410949
87.71219741,12.4022392,-176.0302102,3.969789801
87.91439491,12.51285273,-176.2802301,3.719769945
88.11705852,12.62508993,-176.5390109,3.460989081
88.32018932,12.73898474,-176.806935,3.193065038
88.52378838,12.85457164,-177.0844055,2.915594485
88.72785679,12.97188565,-177.3718485,2.628151542
88.93239563,13.09096222,-177.6697137,2.330286303
89.13740597,13.21183722,-177.9784768,2.02152324
89.34288891,13.33454685,-178.2986405,1.701359502
89.54884554,13.45912755,-178.6307369,1.369263089
89.75527695,13.58561589,-178.9753291,1.024670898
89.96218423,13.71404844,-179.3330134,0.666986627
90.16956849,13.84446164,-179.7044215,0.295578537
90.37743081,13.97689165,-180.0902229,-0.090222942
90.5857723,14.11137407,-180.4911278,-0.491127768
90.79459408,14.24794379,-180.907889,-0.907889017
91.00389723,14.38663467,-181.3413058,-1.341305784
91.21368288,14.52747923,-181.7922263,-1.792226279
91.42395214,14.67050831,-182.2615511,-2.261551098
91.63470611,14.81575061,-182.7502367,-2.750236698
91.84594592,14.96323221,-183.2592991,-3.25929905
92.0576727,15.11297603,-183.7898175,-3.78981749
92.26988755,15.26500115,-184.3429387,-4.342938735
92.48259161,15.41932206,-184.9198811,-4.919881068
92.695786,15.57594785,-185.5219387,-5.521938651
92.90947185,15.73488117,-186.1504859,-6.150485949
93.12365031,15.89611716,-186.8069822,-6.806982192
93.33832249,16.05964211,-187.4929758,-7.492975837
93.55348955,16.22543206,-188.2101089,-8.210108922
93.76915261,16.39345108,-188.9601212,-8.96012121
93.98531283,16.56364943,-189.744854,-9.744853986
94.20197136,16.73596138,-190.5662533,-10.5662533
94.41912933,16.91030287,-191.4263725,-11.42637249
94.6367879,17.08656871,-192.3273736,-12.32737358
94.85494823,17.26462964,-193.2715274,-13.27152742
95.07361146,17.4443289,-194.2612119,-14.26121187
95.29277877,17.62547855,-195.2989078,-15.29890784
95.51245132,17.80785534,-196.3871922,-16.38719225
95.73263026,17.99119628,-197.5287275,-17.52872754
95.95331676,18.17519385,-198.7262467,-18.7262467
96.174512,18.35949091,-199.9825329,-19.98253295
96.39621715,18.54367541,-201.3003931,-21.30039312
96.61843338,18.72727497,-202.6826236,-22.68262361
96.84116187,18.90975156,-204.1319677,-24.13196773
97.0644038,19.09049642,-205.6510635,-25.65106347
97.28816036,19.26882553,-207.2423805,-27.24238054
97.51243273,19.44397613,-208.9081462,-28.90814618
97.73722211,19.61510446,-210.6502592,-30.65025915
97.96252967,19.7812855,-212.4701925,-32.47019249
98.18835663,19.94151518,-214.368886,-34.36888603
98.41470417,20.09471565,-216.346631,-36.34663103
98.64157349,20.23974429,-218.4029506,-38.40295056
98.8689658,20.37540692,-220.5364807,-40.53648075
99.09688231,20.50047572,-222.7448596,-42.74485963
99.32532421,20.61371177,-225.0246317,-45.0246317
99.55429273,20.71389225,-227.3711772,-47.37117725
99.78378908,20.79984143,-229.778676,-49.778676
100.0138145,20.87046451,-232.2401138,-52.24011378
100.2443701,20.92478249,-234.7473392,-54.74733922
100.4754573,20.96196625,-237.2911742,-57.29117424
